Frequency(Hz),Amp(dB)
10000000,-0.1286317
20000000,-0.132979159
30000000,-0.145628432
40000000,-0.161492128
50000000,-0.172105697
60000000,-0.180348483
70000000,-0.190934728
80000000,-0.200797243
90000000,-0.210728069
100000000,-0.220423501
110000000,-0.229368158
120000000,-0.237948229
130000000,-0.246193898
140000000,-0.25368421
150000000,-0.261603338
160000000,-0.269178877
170000000,-0.276369922
180000000,-0.283304692
190000000,-0.290111247
200000000,-0.297030822
210000000,-0.30369741
220000000,-0.309940024
230000000,-0.316158258
240000000,-0.322224337
250000000,-0.328358022
260000000,-0.334562222
270000000,-0.340683287
280000000,-0.34678755
290000000,-0.352861862
300000000,-0.358859918
310000000,-0.364743078
320000000,-0.370559381
330000000,-0.376156582
340000000,-0.38170437
350000000,-0.387023837
360000000,-0.39218377
370000000,-0.397345614
380000000,-0.402313188
390000000,-0.407323734
400000000,-0.412266745
410000000,-0.417348788
420000000,-0.422448427
430000000,-0.427574886
440000000,-0.432689762
450000000,-0.437709319
460000000,-0.442743798
470000000,-0.447726265
480000000,-0.452593657
490000000,-0.457399044
500000000,-0.462019071
510000000,-0.466578859
520000000,-0.470973977
530000000,-0.475343282
540000000,-0.479631047
550000000,-0.483870142
560000000,-0.488218324
570000000,-0.492634235
580000000,-0.497081789
590000000,-0.501610325
600000000,-0.506094912
610000000,-0.510568659
620000000,-0.514988315
630000000,-0.519363057
640000000,-0.523561757
650000000,-0.52763208
660000000,-0.531593371
670000000,-0.535441762
680000000,-0.539257538
690000000,-0.542992192
700000000,-0.546714215
710000000,-0.55042398
720000000,-0.554220317
730000000,-0.557992442
740000000,-0.561830653
750000000,-0.565637678
760000000,-0.569398341
770000000,-0.573140243
780000000,-0.576810506
790000000,-0.580409392
800000000,-0.583979949
810000000,-0.587467656
820000000,-0.590944921
830000000,-0.594366895
840000000,-5.98E-01
850000000,-0.601239427
860000000,-0.604692082
870000000,-0.608112921
880000000,-0.611523109
890000000,-0.614926913
900000000,-0.618293241
910000000,-0.621630943
920000000,-0.62494033
930000000,-0.628229851
940000000,-0.63144203
950000000,-0.634705516
960000000,-0.637918891
970000000,-0.641156095
980000000,-0.644352743
990000000,-0.647540683
1000000000,-0.650695935
1010000000,-0.654892103
1020000000,-0.659024452
1030000000,-0.663245081
1040000000,-0.66728407
1050000000,-0.671297471
1060000000,-0.675203735
1070000000,-0.679038606
1080000000,-0.682840067
1090000000,-0.686693258
1100000000,-0.690562337
1110000000,-0.694345102
1120000000,-0.698031685
1130000000,-0.701733201
1140000000,-0.705377269
1150000000,-0.70900686
1160000000,-0.712572182
1170000000,-0.716225767
1180000000,-0.719770649
1190000000,-0.723320814
1200000000,-0.726821343
1210000000,-0.7303936
1220000000,-0.733898585
1230000000,-0.737410903
1240000000,-0.740889376
1250000000,-0.744380294
1260000000,-0.747826663
1270000000,-0.751288508
1280000000,-0.754675291
1290000000,-0.758006723
1300000000,-0.761353
1310000000,-0.764675282
1320000000,-0.767974718
1330000000,-0.771239651
1340000000,-0.774501259
1350000000,-0.777734764
1360000000,-0.780883985
1370000000,-0.784090311
1380000000,-0.787206003
1390000000,-0.79032059
1400000000,-0.793491736
1410000000,-0.796569766
1420000000,-0.799699224
1430000000,-0.802830224
1440000000,-0.805920891
1450000000,-0.8090191
1460000000,-0.812122667
1470000000,-0.815229379
1480000000,-0.81831093
1490000000,-0.82140052
1500000000,-0.824454367
1510000000,-0.827505465
1520000000,-0.830542271
1530000000,-0.833614475
1540000000,-0.836614689
1550000000,-0.839625025
1560000000,-0.842581137
1570000000,-0.845538076
1580000000,-0.8484544
1590000000,-0.851333818
1600000000,-0.854217562
1610000000,-0.85705525
1620000000,-0.859895162
1630000000,-0.862693682
1640000000,-0.865469938
1650000000,-0.868284678
1660000000,-0.871031815
1670000000,-0.873776146
1680000000,-0.876554583
1690000000,-0.879315209
1700000000,-0.882104039
1710000000,-0.8848905
1720000000,-0.88766413
1730000000,-0.890457496
1740000000,-0.893289981
1750000000,-0.896078763
1760000000,-0.89886966
1770000000,-0.901651146
1780000000,-0.904438388
1790000000,-0.907239524
1800000000,-0.909984413
1810000000,-0.912741454
1820000000,-0.915456646
1830000000,-0.918152953
1840000000,-0.920792133
1850000000,-0.923442409
1860000000,-0.926060885
1870000000,-0.928676577
1880000000,-0.931278794
1890000000,-0.933835255
1900000000,-0.936361619
1910000000,-0.93886924
1920000000,-0.941399254
1930000000,-0.943886854
1940000000,-0.946397247
1950000000,-0.948948185
1960000000,-0.951437662
1970000000,-0.953934187
1980000000,-0.956448491
1990000000,-0.958997241
2000000000,-0.961545467
2010000000,-0.964102645
2020000000,-0.966671661
2030000000,-0.969234464
2040000000,-0.971840894
2050000000,-0.974386749
2060000000,-0.976938465
2070000000,-0.97948354
2080000000,-0.982051509
2090000000,-0.984598353
2100000000,-0.987094843
2110000000,-0.989595433
2120000000,-0.992103181
2130000000,-0.994529735
2140000000,-0.996951653
2150000000,-0.999347788
2160000000,-1.001703583
2170000000,-1.004064492
2180000000,-1.006442422
2190000000,-1.008792293
2200000000,-1.011106932
2210000000,-1.013442505
2220000000,-1.01577406
2230000000,-1.018135129
2240000000,-1.020469049
2250000000,-1.022849302
2260000000,-1.025258682
2270000000,-1.027636989
2280000000,-1.030030534
2290000000,-1.032468301
2300000000,-1.034900434
2310000000,-1.037343934
2320000000,-1.039781996
2330000000,-1.042262408
2340000000,-1.044728524
2350000000,-1.047165908
2360000000,-1.049655107
2370000000,-1.052110444
2380000000,-1.054549909
2390000000,-1.057000288
2400000000,-1.059440791
2410000000,-1.061849041
2420000000,-1.064230481
2430000000,-1.066597372
2440000000,-1.068970931
2450000000,-1.071340937
2460000000,-1.073632228
2470000000,-1.075957873
2480000000,-1.078296492
2490000000,-1.080619408
2500000000,-1.082955257
2510000000,-1.08526672
2520000000,-1.087584974
2530000000,-1.089924646
2540000000,-1.092248932
2550000000,-1.094608903
2560000000,-1.096968606
2570000000,-1.099338474
2580000000,-1.101658816
2590000000,-1.104009287
2600000000,-1.10637374
2610000000,-1.108734009
2620000000,-1.111095415
2630000000,-1.113448336
2640000000,-1.115801587
2650000000,-1.118164682
2660000000,-1.120504308
2670000000,-1.122829705
2680000000,-1.125168647
2690000000,-1.127478999
2700000000,-1.129761121
2710000000,-1.132047167
2720000000,-1.134334557
2730000000,-1.136618806
2740000000,-1.138872316
2750000000,-1.141113922
2760000000,-1.143392111
2770000000,-1.145635976
2780000000,-1.147910889
2790000000,-1.150184923
2800000000,-1.152469656
2810000000,-1.154743915
2820000000,-1.157004825
2830000000,-1.159289928
2840000000,-1.161530997
2850000000,-1.163796648
2860000000,-1.166112901
2870000000,-1.168396216
2880000000,-1.170635216
2890000000,-1.172904307
2900000000,-1.175141309
2910000000,-1.177368356
2920000000,-1.179582146
2930000000,-1.181845905
2940000000,-1.18407697
2950000000,-1.186334057
2960000000,-1.188572254
2970000000,-1.190806615
2980000000,-1.19303992
2990000000,-1.195298059
3000000000,-1.19757495
3010000000,-1.199769933
3020000000,-1.201993244
3030000000,-1.204199989
3040000000,-1.206495299
3050000000,-1.208739555
3060000000,-1.21096171
3070000000,-1.213214055
3080000000,-1.215475138
3090000000,-1.21766142
3100000000,-1.219886173
3110000000,-1.222046609
3120000000,-1.224202972
3130000000,-1.226403647
3140000000,-1.228604788
3150000000,-1.230796731
3160000000,-1.232937611
3170000000,-1.235120299
3180000000,-1.237274662
3190000000,-1.239443042
3200000000,-1.241586688
3210000000,-1.243728329
3220000000,-1.24585551
3230000000,-1.247990377
3240000000,-1.250106965
3250000000,-1.252264164
3260000000,-1.254365971
3270000000,-1.256521437
3280000000,-1.258652109
3290000000,-1.260795152
3300000000,-1.262935153
3310000000,-1.265035395
3320000000,-1.267173224
3330000000,-1.269309291
3340000000,-1.271480124
3350000000,-1.273655101
3360000000,-1.275792741
3370000000,-1.277894351
3380000000,-1.28003688
3390000000,-1.282128461
3400000000,-1.284257074
3410000000,-1.286375917
3420000000,-1.288475224
3430000000,-1.290530094
3440000000,-1.29260884
3450000000,-1.294666761
3460000000,-1.296723197
3470000000,-1.298773283
3480000000,-1.300818141
3490000000,-1.302829354
3500000000,-1.304848461
3510000000,-1.306896506
3520000000,-1.308895042
3530000000,-1.310919698
3540000000,-1.312943184
3550000000,-1.314977596
3560000000,-1.317013824
3570000000,-1.319053258
3580000000,-1.32110759
3590000000,-1.323153838
3600000000,-1.325211583
3610000000,-1.327229601
3620000000,-1.329272652
3630000000,-1.331320229
3640000000,-1.333323435
3650000000,-1.335360352
3660000000,-1.337412126
3670000000,-1.339466329
3680000000,-1.341481534
3690000000,-1.343469727
3700000000,-1.345454449
3710000000,-1.347455336
3720000000,-1.349442035
3730000000,-1.35139028
3740000000,-1.353361284
3750000000,-1.355305659
3760000000,-1.357262966
3770000000,-1.359211413
3780000000,-1.361132222
3790000000,-1.363081163
3800000000,-1.364994214
3810000000,-1.36693006
3820000000,-1.368872117
3830000000,-1.370801652
3840000000,-1.372749991
3850000000,-1.374682239
3860000000,-1.376634969
3870000000,-1.37858066
3880000000,-1.380569533
3890000000,-1.382538781
3900000000,-1.38453619
3910000000,-1.386467078
3920000000,-1.38844389
3930000000,-1.390387604
3940000000,-1.392307833
3950000000,-1.394265935
3960000000,-1.396245435
3970000000,-1.398226145
3980000000,-1.400210386
3990000000,-1.4021838
4000000000,-1.404139571
4010000000,-1.406130488
4020000000,-1.40811246
4030000000,-1.410082458
4040000000,-1.412070298
4050000000,-1.414105942
4060000000,-1.416118919
4070000000,-1.418104231
4080000000,-1.420080544
4090000000,-1.422065061
4100000000,-1.424057645
4110000000,-1.426018101
4120000000,-1.427993459
4130000000,-1.429945389
4140000000,-1.431923776
4150000000,-1.433888649
4160000000,-1.435870131
4170000000,-1.43780573
4180000000,-1.439748173
4190000000,-1.441708377
4200000000,-1.443689112
4210000000,-1.445633511
4220000000,-1.447575323
4230000000,-1.449522339
4240000000,-1.451472013
4250000000,-1.453427046
4260000000,-1.455398752
4270000000,-1.457385799
4280000000,-1.459401297
4290000000,-1.461435747
4300000000,-1.463431592
4310000000,-1.465461668
4320000000,-1.467472522
4330000000,-1.469494559
4340000000,-1.47148833
4350000000,-1.473440005
4360000000,-1.475437859
4370000000,-1.477447805
4380000000,-1.479481533
4390000000,-1.481458204
4400000000,-1.483426277
4410000000,-1.485331635
4420000000,-1.48727025
4430000000,-1.489172156
4440000000,-1.491083754
4450000000,-1.493021032
4460000000,-1.494912346
4470000000,-1.496803131
4480000000,-1.498691228
4490000000,-1.500614505
4500000000,-1.502540854
4510000000,-1.504435332
4520000000,-1.506341761
4530000000,-1.508254545
4540000000,-1.510167008
4550000000,-1.512077828
4560000000,-1.513995991
4570000000,-1.515955034
4580000000,-1.517915653
4590000000,-1.519853697
4600000000,-1.521771721
4610000000,-1.523691502
4620000000,-1.525621227
4630000000,-1.52756326
4640000000,-1.529464548
4650000000,-1.531400832
4660000000,-1.533331469
4670000000,-1.535206265
4680000000,-1.537063214
4690000000,-1.538956692
4700000000,-1.540806045
4710000000,-1.542690101
4720000000,-1.544506662
4730000000,-1.546385596
4740000000,-1.548237603
4750000000,-1.550047129
4760000000,-1.551853425
4770000000,-1.553597325
4780000000,-1.555418038
4790000000,-1.557254892
4800000000,-1.559055963
4810000000,-1.560851475
4820000000,-1.562653874
4830000000,-1.564500032
4840000000,-1.566298483
4850000000,-1.56809219
4860000000,-1.569910501
4870000000,-1.571742022
4880000000,-1.573569224
4890000000,-1.575463797
4900000000,-1.577335457
4910000000,-1.579203018
4920000000,-1.580994138
4930000000,-1.582842856
4940000000,-1.584657482
4950000000,-1.586495322
4960000000,-1.588328882
4970000000,-1.590164035
4980000000,-1.591961171
4990000000,-1.593730463
5000000000,-1.59560986
5010000000,-1.597414432
5020000000,-1.599214663
5030000000,-1.600996047
5040000000,-1.602814167
5050000000,-1.604684792
5060000000,-1.606549454
5070000000,-1.60837024
5080000000,-1.610229691
5090000000,-1.612112507
5100000000,-1.614070223
5110000000,-1.615944826
5120000000,-1.617806042
5130000000,-1.619698252
5140000000,-1.621508697
5150000000,-1.623343952
5160000000,-1.625193615
5170000000,-1.627031461
5180000000,-1.6288561
5190000000,-1.630693184
5200000000,-1.632535007
5210000000,-1.634390278
5220000000,-1.636223241
5230000000,-1.638063254
5240000000,-1.63990956
5250000000,-1.641754952
5260000000,-1.643562758
5270000000,-1.64544423
5280000000,-1.647293263
5290000000,-1.649145453
5300000000,-1.65103687
5310000000,-1.652982053
5320000000,-1.654879044
5330000000,-1.65676827
5340000000,-1.658696971
5350000000,-1.660595274
5360000000,-1.662570168
5370000000,-1.66452952
5380000000,-1.666471252
5390000000,-1.668380872
5400000000,-1.670280667
5410000000,-1.672230249
5420000000,-1.674182034
5430000000,-1.676116215
5440000000,-1.678016544
5450000000,-1.679930881
5460000000,-1.681816024
5470000000,-1.683701386
5480000000,-1.68560123
5490000000,-1.687505913
5500000000,-1.689353231
5510000000,-1.691196267
5520000000,-1.69307715
5530000000,-1.694949476
5540000000,-1.696829708
5550000000,-1.69871712
5560000000,-1.700615866
5570000000,-1.702544365
5580000000,-1.70446376
5590000000,-1.706402995
5600000000,-1.708383338
5610000000,-1.710298983
5620000000,-1.712261523
5630000000,-1.714241763
5640000000,-1.716188625
5650000000,-1.718165978
5660000000,-1.720115252
5670000000,-1.722104836
5680000000,-1.724109875
5690000000,-1.726096693
5700000000,-1.728026911
5710000000,-1.729983788
5720000000,-1.731938352
5730000000,-1.733883612
5740000000,-1.735826833
5750000000,-1.73775922
5760000000,-1.739672508
5770000000,-1.741615238
5780000000,-1.743547133
5790000000,-1.745490096
5800000000,-1.747446775
5810000000,-1.749348185
5820000000,-1.751317493
5830000000,-1.753253819
5840000000,-1.755156561
5850000000,-1.757094185
5860000000,-1.759026239
5870000000,-1.760976919
5880000000,-1.762906248
5890000000,-1.764848912
5900000000,-1.766851347
5910000000,-1.768823535
5920000000,-1.770762966
5930000000,-1.772756546
5940000000,-1.774745376
5950000000,-1.776684544
5960000000,-1.77862262
5970000000,-1.780530812
5980000000,-1.782433168
5990000000,-1.784359163
6000000000,-1.786299789
6010000000,-1.788244397
6020000000,-1.790157274
6030000000,-1.792053928
6040000000,-1.793925358
6050000000,-1.795826428
6060000000,-1.7977688
6070000000,-1.799729438
6080000000,-1.801687818
6090000000,-1.803616928
6100000000,-1.805544476
6110000000,-1.807485304
6120000000,-1.80943872
6130000000,-1.811400002
6140000000,-1.813354243
6150000000,-1.815285715
6160000000,-1.817227653
6170000000,-1.819212961
6180000000,-1.821142351
6190000000,-1.823032337
6200000000,-1.824970209
6210000000,-1.826894231
6220000000,-1.828807709
6230000000,-1.83068311
6240000000,-1.832564503
6250000000,-1.834434332
6260000000,-1.836315934
6270000000,-1.838178259
6280000000,-1.840038332
6290000000,-1.841929998
6300000000,-1.843813467
6310000000,-1.845690935
6320000000,-1.847581667
6330000000,-1.849519684
6340000000,-1.851476934
6350000000,-1.853446857
6360000000,-1.855396395
6370000000,-1.857318706
6380000000,-1.859288305
6390000000,-1.861283313
6400000000,-1.863332299
6410000000,-1.865341663
6420000000,-1.867405729
6430000000,-1.869393133
6440000000,-1.871377122
6450000000,-1.873407864
6460000000,-1.875400237
6470000000,-1.87738397
6480000000,-1.879294626
6490000000,-1.88124788
6500000000,-1.88312209
6510000000,-1.884962969
6520000000,-1.886836252
6530000000,-1.888686082
6540000000,-1.890537679
6550000000,-1.892386552
6560000000,-1.894176169
6570000000,-1.895979167
6580000000,-1.897808448
6590000000,-1.899671511
6600000000,-1.901535869
6610000000,-1.903389407
6620000000,-1.90528214
6630000000,-1.907181289
6640000000,-1.909069533
6650000000,-1.910924401
6660000000,-1.912819365
6670000000,-1.914746892
6680000000,-1.916680508
6690000000,-1.918647512
6700000000,-1.920550986
6710000000,-1.922504112
6720000000,-1.924438038
6730000000,-1.926387932
6740000000,-1.928319953
6750000000,-1.93026971
6760000000,-1.932233524
6770000000,-1.934085761
6780000000,-1.935940592
6790000000,-1.937778928
6800000000,-1.93961994
6810000000,-1.941414559
6820000000,-1.943207812
6830000000,-1.945017574
6840000000,-1.946738025
6850000000,-1.948471311
6860000000,-1.95020674
6870000000,-1.951894148
6880000000,-1.953563844
6890000000,-1.955232822
6900000000,-1.956900791
6910000000,-1.958645066
6920000000,-1.960360898
6930000000,-1.962047097
6940000000,-1.963730813
6950000000,-1.965433759
6960000000,-1.967127443
6970000000,-1.968850107
6980000000,-1.970590598
6990000000,-1.972306009
7000000000,-1.974053078
7010000000,-1.975789548
7020000000,-1.97757416
7030000000,-1.979316559
7040000000,-1.981021864
7050000000,-1.982756809
7060000000,-1.984461271
7070000000,-1.986186287
7080000000,-1.987849768
7090000000,-1.989478165
7100000000,-1.991159688
7110000000,-1.992809074
7120000000,-1.99440649
7130000000,-1.996045057
7140000000,-1.997663081
7150000000,-1.999241063
7160000000,-2.000837122
7170000000,-2.002437649
7180000000,-2.004004037
7190000000,-2.005546203
7200000000,-2.00712349
7210000000,-2.008736072
7220000000,-2.010349739
7230000000,-2.011934999
7240000000,-2.01356446
7250000000,-2.015202375
7260000000,-2.016803635
7270000000,-2.0184194
7280000000,-2.020013325
7290000000,-2.021606137
7300000000,-2.023185593
7310000000,-2.024807321
7320000000,-2.026377496
7330000000,-2.027955645
7340000000,-2.029544044
7350000000,-2.031116164
7360000000,-2.032709226
7370000000,-2.034306872
7380000000,-2.035929156
7390000000,-2.037589633
7400000000,-2.039252395
7410000000,-2.040966463
7420000000,-2.042660113
7430000000,-2.044412435
7440000000,-2.046118208
7450000000,-2.047866792
7460000000,-2.049638815
7470000000,-2.051418511
7480000000,-2.053232127
7490000000,-2.055050532
7500000000,-2.05691017
7510000000,-2.058669838
7520000000,-2.060503753
7530000000,-2.062323513
7540000000,-2.064122767
7550000000,-2.065900981
7560000000,-2.067662086
7570000000,-2.069421194
7580000000,-2.071200373
7590000000,-2.072949744
7600000000,-2.074741756
7610000000,-2.076473496
7620000000,-2.078248301
7630000000,-2.080038616
7640000000,-2.081774844
7650000000,-2.083522077
7660000000,-2.085252932
7670000000,-2.08706263
7680000000,-2.088840464
7690000000,-2.090695723
7700000000,-2.092527894
7710000000,-2.094393547
7720000000,-2.096287405
7730000000,-2.098227656
7740000000,-2.100163847
7750000000,-2.102147364
7760000000,-2.104135946
7770000000,-2.106133438
7780000000,-2.108147581
7790000000,-2.110170611
7800000000,-2.112207646
7810000000,-2.114230294
7820000000,-2.116278976
7830000000,-2.118350389
7840000000,-2.120308322
7850000000,-2.122310284
7860000000,-2.124258611
7870000000,-2.126211074
7880000000,-2.128130973
7890000000,-2.130028948
7900000000,-2.13190224
7910000000,-2.133808148
7920000000,-2.135640839
7930000000,-2.13742959
7940000000,-2.139272904
7950000000,-2.141066857
7960000000,-2.142902883
7970000000,-2.144724044
7980000000,-2.146486714
7990000000,-2.148267162
8000000000,-2.150056754
8010000000,-2.151900714
8020000000,-2.153785902
8030000000,-2.155674344
8040000000,-2.157567643
8050000000,-2.159503018
8060000000,-2.161467163
8070000000,-2.163435816
8080000000,-2.16543821
8090000000,-2.167469963
8100000000,-2.169565895
8110000000,-2.171678768
8120000000,-2.173762052
8130000000,-2.175862139
8140000000,-2.177964348
8150000000,-2.180037119
8160000000,-2.182067553
8170000000,-2.184162543
8180000000,-2.186228332
8190000000,-2.188211211
8200000000,-2.190176168
8210000000,-2.192115978
8220000000,-2.194027239
8230000000,-2.195921046
8240000000,-2.19773852
8250000000,-2.199543237
8260000000,-2.201298199
8270000000,-2.203003027
8280000000,-2.204685812
8290000000,-2.20636493
8300000000,-2.208049139
8310000000,-2.209709286
8320000000,-2.211367398
8330000000,-2.213034036
8340000000,-2.214726805
8350000000,-2.216447688
8360000000,-2.218191442
8370000000,-2.219964137
8380000000,-2.221765319
8390000000,-2.223615349
8400000000,-2.225482293
8410000000,-2.227336095
