Frequency(Hz),Amp(dB)
10000000,0.150460029
20000000,0.149279802
30000000,0.148081501
40000000,0.14687806
50000000,0.145657418
60000000,0.144411822
70000000,0.143141785
80000000,0.141848975
90000000,0.140539514
100000000,0.139214536
110000000,0.137876267
120000000,0.13652688
130000000,0.135159755
140000000,0.133781866
150000000,0.132394329
160000000,0.131002491
170000000,0.129600824
180000000,0.128190025
190000000,0.126764302
200000000,0.125320581
210000000,0.123860111
220000000,0.122387386
230000000,0.120904704
240000000,0.119405748
250000000,0.117883038
260000000,0.11634308
270000000,0.114785455
280000000,0.113215388
290000000,0.11163369
300000000,0.110042606
310000000,0.108443552
320000000,0.106834019
330000000,0.105215806
340000000,0.103585493
350000000,0.101943453
360000000,0.100296364
370000000,0.098632499
380000000,0.09695809
390000000,0.095276325
400000000,0.093587321
410000000,0.091888779
420000000,0.090177511
430000000,0.088456776
440000000,0.086725249
450000000,0.084988434
460000000,0.083248809
470000000,0.081508546
480000000,0.079760041
490000000,0.078004209
500000000,0.076241886
510000000,0.074475628
520000000,0.072706708
530000000,0.070937331
540000000,0.069169882
550000000,0.067403949
560000000,0.065635793
570000000,0.063864889
580000000,0.062093994
590000000,0.060320064
600000000,0.058547385
610000000,0.056775212
620000000,0.055005581
630000000,0.053232638
640000000,0.051459041
650000000,0.049685948
660000000,0.047914488
670000000,0.046147956
680000000,0.044390302
690000000,0.04264321
700000000,0.040904793
710000000,0.039175586
720000000,0.037454237
730000000,0.035741269
740000000,0.034036614
750000000,0.032339856
760000000,0.030649206
770000000,0.028963071
780000000,0.027278757
790000000,0.025598645
800000000,0.023924737
810000000,0.022260478
820000000,0.020605736
830000000,0.018961569
840000000,0.017330709
850000000,0.015710624
860000000,0.014103061
870000000,0.012513265
880000000,0.01093744
890000000,0.009376056
900000000,0.007823859
910000000,0.006278292
920000000,0.00474086
930000000,0.003212609
940000000,0.001697746
950000000,0.000195283
960000000,-0.00129452
970000000,-0.002773415
980000000,-0.004240656
990000000,-0.005696787
1000000000,-0.00713996
1010000000,-0.008571182
1020000000,-0.010021266
1030000000,-0.011482878
1040000000,-0.01292994
1050000000,-0.014416103
1060000000,-0.015891616
1070000000,-0.017338081
1080000000,-0.018775073
1090000000,-0.020213329
1100000000,-0.021629751
1110000000,-0.023021205
1120000000,-0.024401542
1130000000,-0.025766149
1140000000,-0.027114274
1150000000,-0.028451326
1160000000,-0.029784717
1170000000,-0.031095421
1180000000,-0.032391405
1190000000,-0.03367118
1200000000,-0.034935469
1210000000,-0.036189711
1220000000,-0.037426944
1230000000,-0.03865006
1240000000,-0.039858781
1250000000,-0.041054639
1260000000,-0.042235318
1270000000,-0.043406345
1280000000,-0.044569739
1290000000,-0.045730697
1300000000,-0.04688891
1310000000,-0.048042784
1320000000,-0.049183515
1330000000,-0.050319232
1340000000,-0.051446469
1350000000,-0.05256389
1360000000,-0.053680436
1370000000,-0.054790912
1380000000,-0.055885881
1390000000,-0.056973579
1400000000,-0.058052937
1410000000,-0.059120787
1420000000,-0.060191314
1430000000,-0.061269215
1440000000,-0.062329054
1450000000,-0.063378335
1460000000,-0.064431264
1470000000,-0.065477651
1480000000,-0.066517911
1490000000,-0.067558747
1500000000,-0.068596778
1510000000,-0.069629278
1520000000,-0.070657216
1530000000,-0.071675982
1540000000,-0.072683104
1550000000,-0.073692658
1560000000,-0.074708472
1570000000,-0.075725205
1580000000,-0.076736289
1590000000,-0.077740031
1600000000,-0.078734054
1610000000,-0.0797285
1620000000,-0.080729675
1630000000,-0.081731453
1640000000,-0.082729636
1650000000,-0.083726241
1660000000,-0.084721089
1670000000,-0.085718208
1680000000,-0.086712749
1690000000,-0.087707177
1700000000,-0.088698753
1710000000,-0.089692339
1720000000,-0.090683209
1730000000,-0.09167186
1740000000,-0.092659801
1750000000,-0.093646465
1760000000,-0.09463121
1770000000,-0.095613144
1780000000,-0.096592103
1790000000,-0.097571714
1800000000,-0.098554349
1810000000,-0.099535082
1820000000,-0.10052226
1830000000,-0.101513582
1840000000,-0.102499013
1850000000,-0.103482506
1860000000,-0.104462544
1870000000,-0.105440841
1880000000,-0.106423238
1890000000,-0.107408611
1900000000,-0.108394643
1910000000,-0.109376858
1920000000,-0.110356388
1930000000,-0.111333534
1940000000,-0.112310946
1950000000,-0.113285298
1960000000,-0.114265596
1970000000,-0.115249776
1980000000,-0.116236487
1990000000,-0.117231588
2000000000,-0.118223446
2010000000,-0.119216698
2020000000,-0.120207666
2030000000,-0.12119919
2040000000,-0.122194171
2050000000,-0.123185971
2060000000,-0.124169771
2070000000,-0.125140998
2080000000,-0.126102846
2090000000,-0.127063679
2100000000,-0.128023339
2110000000,-0.12898148
2120000000,-0.129941735
2130000000,-0.130897587
2140000000,-0.131854171
2150000000,-0.132814075
2160000000,-0.133782875
2170000000,-0.134756577
2180000000,-0.135731634
2190000000,-0.136702991
2200000000,-0.137664618
2210000000,-0.138620802
2220000000,-0.139576056
2230000000,-0.140530363
2240000000,-0.141477723
2250000000,-0.142413544
2260000000,-0.143336471
2270000000,-0.144252729
2280000000,-0.145169038
2290000000,-0.146084749
2300000000,-0.14700152
2310000000,-0.147921556
2320000000,-0.148837677
2330000000,-0.149752329
2340000000,-0.150662489
2350000000,-0.151573496
2360000000,-0.152485274
2370000000,-0.153393247
2380000000,-0.15429811
2390000000,-0.155200277
2400000000,-0.156099058
2410000000,-0.156995282
2420000000,-0.157884578
2430000000,-0.158770231
2440000000,-0.159648474
2450000000,-0.160522752
2460000000,-0.161390094
2470000000,-0.162256105
2480000000,-0.163116807
2490000000,-0.163973725
2500000000,-0.164827402
2510000000,-0.165677398
2520000000,-0.166525824
2530000000,-0.167374199
2540000000,-0.168226951
2550000000,-0.169084469
2560000000,-0.169941806
2570000000,-0.170794738
2580000000,-0.171642117
2590000000,-0.172480969
2600000000,-0.173316868
2610000000,-0.17414778
2620000000,-0.174976635
2630000000,-0.175797794
2640000000,-0.17661423
2650000000,-0.177423758
2660000000,-0.178229684
2670000000,-0.179037722
2680000000,-0.1798522
2690000000,-0.180675859
2700000000,-0.18150113
2710000000,-0.182328668
2720000000,-0.183155267
2730000000,-0.183981011
2740000000,-0.184809581
2750000000,-0.185636733
2760000000,-0.18646159
2770000000,-0.187282684
2780000000,-0.188096672
2790000000,-0.188904373
2800000000,-0.189712925
2810000000,-0.190523704
2820000000,-0.191335293
2830000000,-0.192147172
2840000000,-0.192959798
2850000000,-0.193776421
2860000000,-0.194596721
2870000000,-0.1954263
2880000000,-0.196260376
2890000000,-0.197100432
2900000000,-0.197941679
2910000000,-0.19878346
2920000000,-0.199628799
2930000000,-0.200479122
2940000000,-0.201332528
2950000000,-0.202190129
2960000000,-0.203051345
2970000000,-0.203911239
2980000000,-0.204772828
2990000000,-0.20563313
3000000000,-0.206497638
3010000000,-0.207366813
3020000000,-0.208235755
3030000000,-0.209104711
3040000000,-0.209977273
3050000000,-0.210854793
3060000000,-0.21173923
3070000000,-0.212631586
3080000000,-0.213533433
3090000000,-0.214443079
3100000000,-0.21536008
3110000000,-0.216281706
3120000000,-0.217207306
3130000000,-0.218133446
3140000000,-0.219061574
3150000000,-0.219988918
3160000000,-0.220907898
3170000000,-0.221822766
3180000000,-0.222739405
3190000000,-0.223659956
3200000000,-0.224587059
3210000000,-0.225519216
3220000000,-0.22645762
3230000000,-0.227399229
3240000000,-0.228351184
3250000000,-0.229314343
3260000000,-0.230287453
3270000000,-0.231265648
3280000000,-0.232241129
3290000000,-0.23320791
3300000000,-0.234171296
3310000000,-0.235134068
3320000000,-0.236096916
3330000000,-0.237057038
3340000000,-0.238017071
3350000000,-0.238973491
3360000000,-0.239928944
3370000000,-0.240888338
3380000000,-0.241856474
3390000000,-0.242824721
3400000000,-0.243796963
3410000000,-0.244767993
3420000000,-0.245735632
3430000000,-0.246702447
3440000000,-0.247670592
3450000000,-0.2486421
3460000000,-0.249616545
3470000000,-0.250588753
3480000000,-0.251559943
3490000000,-0.25252614
3500000000,-0.253490746
3510000000,-0.254455603
3520000000,-0.255419908
3530000000,-0.256381815
3540000000,-0.257339641
3550000000,-0.258287669
3560000000,-0.25922753
3570000000,-0.260167073
3580000000,-0.261107746
3590000000,-0.26204985
3600000000,-0.262996609
3610000000,-0.263944868
3620000000,-0.264890775
3630000000,-0.265836667
3640000000,-0.26678694
3650000000,-0.267736382
3660000000,-0.268683353
3670000000,-0.269618905
3680000000,-0.270545428
3690000000,-0.271463335
3700000000,-0.272373288
3710000000,-0.273275504
3720000000,-0.274174738
3730000000,-0.275070173
3740000000,-0.275962893
3750000000,-0.27685543
3760000000,-0.277750035
3770000000,-0.278649287
3780000000,-0.279549461
3790000000,-0.280445202
3800000000,-0.281336691
3810000000,-0.282219027
3820000000,-0.283092465
3830000000,-0.283959624
3840000000,-0.284823959
3850000000,-0.285681185
3860000000,-0.286530246
3870000000,-0.287371867
3880000000,-0.288207513
3890000000,-0.289039708
3900000000,-0.289868289
3910000000,-0.29069621
3920000000,-0.291518059
3930000000,-0.292331445
3940000000,-0.293140558
3950000000,-0.293948023
3960000000,-0.29475004
3970000000,-0.295546538
3980000000,-0.296337452
3990000000,-0.297121795
4000000000,-0.297902706
4010000000,-0.298680346
4020000000,-0.299457444
4030000000,-0.300228563
4040000000,-0.300994396
4050000000,-0.301751971
4060000000,-0.302501556
4070000000,-0.303248908
4080000000,-0.303992472
4090000000,-0.304731498
4100000000,-0.305463336
4110000000,-0.306189456
4120000000,-0.306908921
4130000000,-0.307625047
4140000000,-0.308335809
4150000000,-0.309044999
4160000000,-0.30974764
4170000000,-0.310441953
4180000000,-0.311131613
4190000000,-0.311813626
4200000000,-0.312494966
4210000000,-0.313170747
4220000000,-0.313837392
4230000000,-0.314500228
4240000000,-0.315155616
4250000000,-0.315805076
4260000000,-0.316451334
4270000000,-0.317093703
4280000000,-0.317727729
4290000000,-0.318357863
4300000000,-0.318978018
4310000000,-0.319585754
4320000000,-0.320189395
4330000000,-0.320787932
4340000000,-0.321385179
4350000000,-0.321975934
4360000000,-0.322562111
4370000000,-0.323139378
4380000000,-0.323712267
4390000000,-0.324282862
4400000000,-0.3248495
4410000000,-0.325412027
4420000000,-0.325969297
4430000000,-0.326517418
4440000000,-0.327056659
4450000000,-0.327588767
4460000000,-0.328122223
4470000000,-0.328652625
4480000000,-0.329177284
4490000000,-0.329699241
4500000000,-0.330215234
4510000000,-0.330729172
4520000000,-0.331243666
4530000000,-0.331756208
4540000000,-0.332265727
4550000000,-0.332767562
4560000000,-0.333259141
4570000000,-0.333741485
4580000000,-0.334219933
4590000000,-0.33469414
4600000000,-0.335164498
4610000000,-0.335632316
4620000000,-0.336094924
4630000000,-0.336555117
4640000000,-0.337013617
4650000000,-0.337473494
4660000000,-0.337936246
4670000000,-0.338398637
4680000000,-0.338856229
4690000000,-0.339304718
4700000000,-0.339744281
4710000000,-0.340176939
4720000000,-0.340605574
4730000000,-0.3410306
4740000000,-0.34144847
4750000000,-0.341862279
4760000000,-0.342272022
4770000000,-0.342678377
4780000000,-0.343083989
4790000000,-0.343493223
4800000000,-0.34390082
4810000000,-0.344306497
4820000000,-0.344711281
4830000000,-0.345114211
4840000000,-0.345517469
4850000000,-0.3459158
4860000000,-0.346309048
4870000000,-0.346695771
4880000000,-0.347078655
4890000000,-0.34745486
4900000000,-0.347825236
4910000000,-0.348192242
4920000000,-0.348552589
4930000000,-0.348905243
4940000000,-0.349259497
4950000000,-0.349609359
4960000000,-0.349960654
4970000000,-0.350315183
4980000000,-0.350670268
4990000000,-0.351027563
5000000000,-0.351383455
5010000000,-0.351735574
5020000000,-0.352086835
5030000000,-0.352437906
5040000000,-0.352785463
5050000000,-0.35312659
5060000000,-0.353463421
5070000000,-0.353791726
5080000000,-0.354112797
5090000000,-0.354430543
5100000000,-0.354745139
5110000000,-0.355061297
5120000000,-0.355378152
5130000000,-0.355694509
5140000000,-0.356012742
5150000000,-0.356332458
5160000000,-0.356657026
5170000000,-0.356985046
5180000000,-0.357314148
5190000000,-0.357641103
5200000000,-0.357964384
5210000000,-0.35828633
5220000000,-0.35860255
5230000000,-0.35891758
5240000000,-0.359229908
5250000000,-0.359534549
5260000000,-0.359830405
5270000000,-0.360121379
5280000000,-0.3604116
5290000000,-0.360704492
5300000000,-0.360997575
5310000000,-0.361293314
5320000000,-0.361592017
5330000000,-0.361892051
5340000000,-0.362196245
5350000000,-0.362504952
5360000000,-0.362816054
5370000000,-0.363127368
5380000000,-0.363435795
5390000000,-0.363741904
5400000000,-0.364041086
5410000000,-0.364334509
5420000000,-0.364624934
5430000000,-0.364909851
5440000000,-0.365188259
5450000000,-0.36546123
5460000000,-0.36573117
5470000000,-0.366002109
5480000000,-0.366276178
5490000000,-0.366554352
5500000000,-0.366835001
5510000000,-0.367116489
5520000000,-0.367401273
5530000000,-0.367687999
5540000000,-0.367977622
5550000000,-0.368267979
5560000000,-0.368558377
5570000000,-0.368845175
5580000000,-0.369127394
5590000000,-0.369405668
5600000000,-0.36967728
5610000000,-0.369943079
5620000000,-0.370208308
5630000000,-0.370471459
5640000000,-0.370731113
5650000000,-0.370990997
5660000000,-0.371253587
5670000000,-0.371521425
5680000000,-0.371795057
5690000000,-0.372074655
5700000000,-0.372360507
5710000000,-0.372649381
5720000000,-0.372941573
5730000000,-0.373234091
5740000000,-0.37352784
5750000000,-0.373820469
5760000000,-0.374110492
5770000000,-0.374393811
5780000000,-0.374675861
5790000000,-0.374955759
5800000000,-0.375235811
5810000000,-0.375517494
5820000000,-0.375800433
5830000000,-0.376086112
5840000000,-0.376376433
5850000000,-0.376673331
5860000000,-0.376976162
5870000000,-0.377284812
5880000000,-0.377596086
5890000000,-0.377910285
5900000000,-0.378228349
5910000000,-0.378546027
5920000000,-0.378869603
5930000000,-0.379196181
5940000000,-0.379523151
5950000000,-0.379847268
5960000000,-0.380171336
5970000000,-0.380497185
5980000000,-0.380825879
5990000000,-0.381157295
6000000000,-0.381493291
6010000000,-0.381834283
6020000000,-0.382178605
6030000000,-0.382529124
6040000000,-0.382889962
6050000000,-0.383263941
6060000000,-0.38365096
6070000000,-0.384047279
6080000000,-0.384449603
6090000000,-0.384854358
6100000000,-0.385265245
6110000000,-0.38568295
6120000000,-0.386104327
6130000000,-0.386527653
6140000000,-0.386954689
6150000000,-0.387380245
6160000000,-0.387809251
6170000000,-0.388245578
6180000000,-0.388691618
6190000000,-0.3891505
6200000000,-0.389619452
6210000000,-0.390098646
6220000000,-0.390590091
6230000000,-0.391087962
6240000000,-0.391595636
6250000000,-0.392109467
6260000000,-0.392631926
6270000000,-0.393155922
6280000000,-0.393680889
6290000000,-0.394203552
6300000000,-0.394733031
6310000000,-0.395272465
6320000000,-0.395817746
6330000000,-0.39636851
6340000000,-0.396920274
6350000000,-0.397475176
6360000000,-0.398033584
6370000000,-0.398597644
6380000000,-0.399167695
6390000000,-0.399741561
6400000000,-0.40032199
6410000000,-0.400904543
6420000000,-0.401494479
6430000000,-0.402094025
6440000000,-0.402706625
6450000000,-0.403332791
6460000000,-0.403964451
6470000000,-0.404596931
6480000000,-0.405232507
6490000000,-0.405867305
6500000000,-0.406503273
6510000000,-0.40713813
6520000000,-0.407766944
6530000000,-0.408394161
6540000000,-0.409018211
6550000000,-0.409643751
6560000000,-0.410280815
6570000000,-0.410931957
6580000000,-0.411593413
6590000000,-0.412264373
6600000000,-0.41293947
6610000000,-0.413619701
6620000000,-0.414302008
6630000000,-0.414984392
6640000000,-0.415666811
6650000000,-0.416343268
6660000000,-0.417009794
6670000000,-0.417668209
6680000000,-0.418323742
6690000000,-0.418982907
6700000000,-0.419647168
6710000000,-0.420314614
6720000000,-0.420984453
6730000000,-0.421657181
6740000000,-0.422332403
6750000000,-0.423010809
6760000000,-0.423692023
6770000000,-0.424373382
6780000000,-0.425052291
6790000000,-0.425725976
6800000000,-0.426393973
6810000000,-0.42705973
6820000000,-0.427725064
6830000000,-0.42839063
6840000000,-0.42905587
6850000000,-0.429719432
6860000000,-0.43038441
6870000000,-0.431049867
6880000000,-0.431714263
6890000000,-0.432378946
6900000000,-0.433040524
6910000000,-0.433698505
6920000000,-0.434357065
6930000000,-0.435016587
6940000000,-0.435676185
6950000000,-0.436339998
6960000000,-0.437003712
6970000000,-0.437666667
6980000000,-0.438330642
6990000000,-0.438994932
7000000000,-0.439655798
7010000000,-0.440314446
7020000000,-0.440969995
7030000000,-0.441619738
7040000000,-0.442260367
7050000000,-0.442897191
7060000000,-0.443529563
7070000000,-0.444163094
7080000000,-0.444796116
7090000000,-0.445426237
7100000000,-0.446056438
7110000000,-0.44668784
7120000000,-0.447319059
7130000000,-0.447953786
7140000000,-0.448586712
7150000000,-0.449217584
7160000000,-0.449842871
7170000000,-0.450461271
7180000000,-0.451073784
7190000000,-0.451682537
7200000000,-0.452288718
7210000000,-0.452890192
7220000000,-0.453489361
7230000000,-0.454081365
7240000000,-0.454668671
7250000000,-0.455257377
7260000000,-0.455848128
7270000000,-0.456439023
7280000000,-0.457028694
7290000000,-0.457613446
7300000000,-0.458196157
7310000000,-0.458772202
7320000000,-0.459344551
7330000000,-0.459913271
7340000000,-0.460475124
7350000000,-0.461028895
7360000000,-0.461577722
7370000000,-0.462120845
7380000000,-0.462660031
7390000000,-0.463194611
7400000000,-0.463726985
7410000000,-0.464255882
7420000000,-0.46478187
7430000000,-0.465305121
7440000000,-0.465827326
7450000000,-0.466347127
7460000000,-0.466863661
7470000000,-0.467374979
7480000000,-0.467876834
7490000000,-0.468370804
7500000000,-0.468859585
7510000000,-0.469342399
7520000000,-0.469818143
7530000000,-0.470287215
7540000000,-0.470748503
7550000000,-0.471200326
7560000000,-0.47164536
7570000000,-0.47208476
7580000000,-0.472517071
7590000000,-0.472944136
7600000000,-0.473366256
7610000000,-0.473783543
7620000000,-0.474192288
7630000000,-0.474594413
7640000000,-0.474990902
7650000000,-0.475382317
7660000000,-0.475766918
7670000000,-0.476145832
7680000000,-0.476517359
7690000000,-0.476878476
7700000000,-0.477231373
7710000000,-0.477576569
7720000000,-0.477915919
7730000000,-0.478246431
7740000000,-0.478569804
7750000000,-0.47888308
7760000000,-0.479186461
7770000000,-0.47948526
7780000000,-0.479777034
7790000000,-0.480065716
7800000000,-0.480347465
7810000000,-0.480622431
7820000000,-0.480889584
7830000000,-0.481149042
7840000000,-0.481402295
7850000000,-0.481648926
7860000000,-0.481887906
7870000000,-0.482120023
7880000000,-0.482343033
7890000000,-0.482555575
7900000000,-0.482760498
7910000000,-0.482958946
7920000000,-0.483149838
7930000000,-0.483332905
7940000000,-0.483507843
7950000000,-0.483677096
7960000000,-0.4838392
7970000000,-0.483994616
7980000000,-0.484142917
7990000000,-0.484286624
8000000000,-0.484424397
8010000000,-0.484555066
8020000000,-0.484678712
8030000000,-0.484795588
8040000000,-0.484905671
8050000000,-0.485009449
8060000000,-0.485106225
8070000000,-0.485196912
8080000000,-0.485280836
8090000000,-0.485358395
8100000000,-0.485431285
8110000000,-0.485497771
8120000000,-0.485558996
8130000000,-0.485616876
8140000000,-0.485670281
8150000000,-0.485719824
8160000000,-0.485767942
8170000000,-0.485813797
8180000000,-0.48585731
8190000000,-0.485897347
8200000000,-0.485934622
8210000000,-0.485969777
8220000000,-0.486004023
8230000000,-0.486038508
8240000000,-0.486075806
8250000000,-0.486116904
8260000000,-0.486157256
8270000000,-0.486196551
8280000000,-0.486238276
8290000000,-0.486286613
8300000000,-0.486336854
8310000000,-0.486387782
8320000000,-0.48644016
8330000000,-0.486493265
8340000000,-0.486549444
8350000000,-0.48660917
8360000000,-0.486678937
8370000000,-0.486757754
8380000000,-0.486842101
8390000000,-0.486934459
8400000000,-0.48703245
8410000000,-0.487138037
8420000000,-0.487251962
8430000000,-0.487373832
8440000000,-0.487498104
