Frequency(Hz),Amp(dB),原始数据
10000000,-0.1317487,-0.1317487
20000000,-0.140550492,-0.149609353
30000000,-0.151018032,-0.140293424
40000000,-0.166007842,-0.161588503
50000000,-0.178396697,-0.171850181
60000000,-0.189160301,-0.192604047
70000000,-0.199694805,-0.214360691
80000000,-0.209946843,-0.223166703
90000000,-0.21993501,-0.220348673
100000000,-0.229721238,-0.22534819
110000000,-0.239443301,-0.249844845
120000000,-0.248525924,-0.251481228
130000000,-0.257401218,-0.263787928
140000000,-0.265598432,-0.270766536
150000000,-0.273744924,-0.282403641
160000000,-0.281568135,-0.290280833
170000000,-0.288614649,-0.299411702
180000000,-0.296144978,-0.304231974
190000000,-0.302913436,-0.321576369
200000000,-0.30980513,-0.333855462
210000000,-0.316249874,-0.329750344
220000000,-0.32241528,-0.338172104
230000000,-0.328841325,-0.349614833
240000000,-0.335097081,-0.354674621
250000000,-0.341364736,-0.364259559
260000000,-0.347661751,-0.370945735
270000000,-0.353904834,-0.365181489
280000000,-0.360340604,-0.385230272
290000000,-0.36664702,-0.38221485
300000000,-0.37279946,-0.393524982
310000000,-0.378911767,-0.396484427
320000000,-0.38498454,-0.397997942
330000000,-0.390792982,-0.397673286
340000000,-0.396335012,-0.417543217
350000000,-0.401841402,-0.423247595
360000000,-0.407185164,-0.419832531
370000000,-0.412377738,-0.422890361
380000000,-0.417467722,-0.434294515
390000000,-0.422502059,-0.440308425
400000000,-0.427579732,-0.438342519
410000000,-0.432730133,-0.44550223
420000000,-0.437976668,-0.446626986
430000000,-0.443247968,-0.450985223
440000000,-0.448528279,-0.466984141
450000000,-0.453738791,-0.467018447
460000000,-0.458999259,-0.469225108
470000000,-0.464166394,-0.482478092
480000000,-0.469269668,-0.488719364
490000000,-0.474237786,-0.488589894
500000000,-0.479071395,-0.497990647
510000000,-0.483798166,-0.505886592
520000000,-0.488297511,-0.511800604
530000000,-0.492690596,-0.514406294
540000000,-0.497106421,-0.5260466
550000000,-0.501329271,-0.535730426
560000000,-0.505674693,-0.537304672
570000000,-0.510121482,-0.542842241
580000000,-0.514546267,-0.547338036
590000000,-0.519068291,-0.548949959
600000000,-0.523539064,-0.556613993
610000000,-0.527994154,-0.561835635
620000000,-0.532448575,-0.566590137
630000000,-0.536809089,-0.573818093
640000000,-0.54105493,-0.574783098
650000000,-0.545139793,-0.572734745
660000000,-0.549145989,-0.578012628
670000000,-0.553064303,-0.574889339
680000000,-0.556864782,-0.583071474
690000000,-0.560623126,-0.589539483
700000000,-0.564310416,-0.585885269
710000000,-0.56798998,-0.597204599
720000000,-0.571747953,-0.596999243
730000000,-0.575496642,-0.596428968
740000000,-0.579270966,-0.601902542
750000000,-0.583055913,-0.604601735
760000000,-0.586824434,-0.606463313
770000000,-0.59054793,-0.616116087
780000000,-0.594253267,-0.620223391
790000000,-0.597870845,-0.625916928
800000000,-0.601466081,-0.633648409
810000000,-0.605004383,-0.638693545
820000000,-0.608491443,-0.648488046
830000000,-0.611968852,-0.652434624
840000000,-6.15E-01,-0.659526988
850000000,-0.618881456,-0.664486833
860000000,-0.622348123,-0.669446021
870000000,-0.625808025,-0.676436974
880000000,-0.62921044,-0.679175738
890000000,-0.63261902,-0.681616358
900000000,-0.635989179,-0.690478877
910000000,-0.639327479,-0.695701342
920000000,-0.642654499,-0.699830797
930000000,-0.645966353,-0.698711286
940000000,-0.649248088,-0.705920454
950000000,-0.652570453,-0.707223309
960000000,-0.655905975,-0.710297023
970000000,-0.659198338,-0.710149775
980000000,-0.662496092,-0.716061739
990000000,-0.66577014,-0.710941091
1000000000,-0.669024845,-0.714355008
1010000000,-0.673348314,-0.721191665
1020000000,-0.677582,-0.713336265
1030000000,-0.681872865,-0.717692603
1040000000,-0.686069965,-0.714409037
1050000000,-0.690201969,-0.72345995
1060000000,-0.694235901,-0.727086726
1070000000,-0.698168671,-0.730787747
1080000000,-0.702052876,-0.723956396
1090000000,-0.705964333,-0.730547056
1100000000,-0.709880352,-0.739695107
1110000000,-0.713679037,-0.745305343
1120000000,-0.717469775,-0.752177379
1130000000,-0.721213864,-0.761659148
1140000000,-0.724933003,-0.764531582
1150000000,-0.728596051,-0.764561613
1160000000,-0.732272724,-0.777121174
1170000000,-0.735933883,-0.781048199
1180000000,-0.739597453,-0.782712619
1190000000,-0.74319215,-0.787445876
1200000000,-0.746737046,-0.796987609
1210000000,-0.750334529,-0.789156515
1220000000,-0.753915424,-0.802580305
1230000000,-0.757425808,-0.801301692
1240000000,-0.760956653,-0.805020387
1250000000,-0.764447128,-0.804941104
1260000000,-0.767905115,-0.804021554
1270000000,-0.771407498,-0.808818413
1280000000,-0.774815914,-0.806951897
1290000000,-0.778246658,-0.802105296
1300000000,-0.781617472,-0.807393768
1310000000,-0.784996518,-0.80769747
1320000000,-0.788368552,-0.810555561
1330000000,-0.791702902,-0.808872199
1340000000,-0.794974596,-0.804687542
1350000000,-0.798209704,-0.814505748
1360000000,-0.801451789,-0.814214239
1370000000,-0.804703436,-0.814408436
1380000000,-0.807880028,-0.816792997
1390000000,-0.811046294,-0.816986576
1400000000,-0.814232304,-0.82193283
1410000000,-0.817385706,-0.825506415
1420000000,-0.820543113,-0.834478988
1430000000,-0.823713425,-0.838891203
1440000000,-0.826813761,-0.8412256
1450000000,-0.829928321,-0.845830253
1460000000,-0.833062435,-0.851645233
1470000000,-0.836177037,-0.854173594
1480000000,-0.839259522,-0.859366389
1490000000,-0.842360138,-0.863132673
1500000000,-0.845444844,-0.865487499
1510000000,-0.848472987,-0.86967092
1520000000,-0.85150821,-0.87171601
1530000000,-0.854552872,-0.871627759
1540000000,-0.857546196,-0.876791656
1550000000,-0.860504498,-0.878631559
1560000000,-0.86346472,-0.874011329
1570000000,-0.866387016,-0.882454825
1580000000,-0.869292124,-0.881085907
1590000000,-0.872184773,-0.886298435
1600000000,-0.875039316,-0.884226268
1610000000,-0.877865466,-0.888372474
1620000000,-0.880695027,-0.889125832
1630000000,-0.883482717,-0.889273671
1640000000,-0.886271581,-0.893723318
1650000000,-0.889080341,-0.897032102
1660000000,-0.891875358,-0.89824735
1670000000,-0.894671523,-0.901456391
1680000000,-0.897438417,-0.906916553
1690000000,-0.900186671,-0.909485209
1700000000,-0.902985702,-0.914360684
1710000000,-0.905745194,-0.91620219
1720000000,-0.908539276,-0.920518973
1730000000,-0.911343918,-0.922740281
1740000000,-0.914143318,-0.92171536
1750000000,-0.916952497,-0.925323456
1760000000,-0.91975371,-0.928843817
1770000000,-0.92253995,-0.932895691
1780000000,-0.925321057,-0.936159276
1790000000,-0.928097399,-0.932337201
1800000000,-0.930821101,-0.934372479
1810000000,-0.933557404,-0.941838123
1820000000,-0.936236169,-0.944907147
1830000000,-0.93890928,-0.942592563
1840000000,-0.941539686,-0.947377385
1850000000,-0.944160052,-0.950624625
1860000000,-0.946768287,-0.949666636
1870000000,-0.949328597,-0.955950514
1880000000,-0.951887577,-0.961260852
1890000000,-0.954433446,-0.96516223
1900000000,-0.956964951,-0.967199224
1910000000,-0.959468717,-0.975026413
1920000000,-0.961960008,-0.969858376
1930000000,-0.964484498,-0.977379689
1940000000,-0.966967247,-0.975805049
1950000000,-0.969488195,-0.985653569
1960000000,-0.971988084,-0.983750048
1970000000,-0.974498835,-0.986229657
1980000000,-0.97700631,-0.988917568
1990000000,-0.979556502,-0.990308953
2000000000,-0.982094839,-0.992118983
2010000000,-0.984626981,-0.99211283
2020000000,-0.987204968,-0.994175665
2030000000,-0.989767424,-0.996811353
2040000000,-0.992390442,-0.994118978
2050000000,-0.994979236,-0.995356534
2060000000,-0.997543867,-0.996982014
2070000000,-1.000094887,-0.996123409
2080000000,-1.00268773,-0.998728714
2090000000,-1.005285629,-1.004635921
2100000000,-1.007850712,-1.005783024
2110000000,-1.010380036,-1.005838187
2120000000,-1.012899634,-1.008861677
2130000000,-1.015376338,-1.010875148
2140000000,-1.017835377,-1.011350283
2150000000,-1.020279286,-1.021938762
2160000000,-1.02268603,-1.027982268
2170000000,-1.025065904,-1.03328248
2180000000,-1.027509312,-1.036921082
2190000000,-1.029930629,-1.039289746
2200000000,-1.032277108,-1.045649476
2210000000,-1.034690484,-1.050770088
2220000000,-1.037093658,-1.048181275
2230000000,-1.039520209,-1.057312728
2240000000,-1.041933004,-1.05886414
2250000000,-1.044378543,-1.059085205
2260000000,-1.046822777,-1.062155615
2270000000,-1.049260205,-1.063505062
2280000000,-1.051712398,-1.064932934
2290000000,-1.054223467,-1.064317007
2300000000,-1.056735137,-1.068914529
2310000000,-1.059247803,-1.069032748
2320000000,-1.061739825,-1.061208912
2330000000,-1.064278111,-1.06861027
2340000000,-1.066809946,-1.06703407
2350000000,-1.069303722,-1.065007559
2360000000,-1.07183772,-1.069968143
2370000000,-1.074350519,-1.066436294
2380000000,-1.076844356,-1.070395285
2390000000,-1.079348635,-1.072358491
2400000000,-1.08183552,-1.073029288
2410000000,-1.084304855,-1.074951052
2420000000,-1.086749707,-1.081877159
2430000000,-1.089160242,-1.083950983
2440000000,-1.091587881,-1.086815897
2450000000,-1.093991711,-1.092913947
2460000000,-1.096378625,-1.102283875
2470000000,-1.098769014,-1.102133916
2480000000,-1.101137854,-1.105612307
2490000000,-1.103514313,-1.111847282
2500000000,-1.105882021,-1.108487079
2510000000,-1.108230052,-1.115809932
2520000000,-1.110584567,-1.120294078
2530000000,-1.112969304,-1.121718029
2540000000,-1.115335278,-1.124432423
2550000000,-1.117686466,-1.12638889
2560000000,-1.120092214,-1.124379063
2570000000,-1.122467946,-1.125454575
2580000000,-1.124860338,-1.124587061
2590000000,-1.127233247,-1.124668153
2600000000,-1.129634594,-1.124239486
2610000000,-1.132030592,-1.129672671
2620000000,-1.134429335,-1.128568556
2630000000,-1.136827532,-1.129767027
2640000000,-1.139202391,-1.13167791
2650000000,-1.14159212,-1.134221032
2660000000,-1.143979635,-1.131326219
2670000000,-1.146346238,-1.133683297
2680000000,-1.148701713,-1.136442093
2690000000,-1.151047692,-1.142892433
2700000000,-1.153348759,-1.146343416
2710000000,-1.155656162,-1.15302156
2720000000,-1.157949984,-1.154552809
2730000000,-1.160245038,-1.158983111
2740000000,-1.162554527,-1.163628408
2750000000,-1.164838042,-1.163904648
2760000000,-1.167163869,-1.170577776
2770000000,-1.169452307,-1.173663736
2780000000,-1.171741141,-1.178408939
2790000000,-1.174029395,-1.175665204
2800000000,-1.176331515,-1.183217847
2810000000,-1.178646126,-1.181562241
2820000000,-1.180937639,-1.184383762
2830000000,-1.183234451,-1.182977782
2840000000,-1.185516273,-1.185939678
2850000000,-1.187809211,-1.188484822
2860000000,-1.190111041,-1.185938549
2870000000,-1.192375814,-1.188412897
2880000000,-1.194665266,-1.188244211
2890000000,-1.19693099,-1.194248269
2900000000,-1.199178394,-1.193950851
2910000000,-1.201414587,-1.195597736
2920000000,-1.20369285,-1.201084703
2930000000,-1.205965,-1.199987532
2940000000,-1.208239131,-1.208892002
2950000000,-1.210476117,-1.207775019
2960000000,-1.212729893,-1.209789243
2970000000,-1.2149735,-1.215049163
2980000000,-1.217197559,-1.21842927
2990000000,-1.219458762,-1.219484057
3000000000,-1.221732136,-1.225088013
3010000000,-1.223971592,-1.226355631
3020000000,-1.226216611,-1.2276214
3030000000,-1.228429487,-1.236389575
3040000000,-1.230666806,-1.238629957
3050000000,-1.23290438,-1.237448386
3060000000,-1.235122213,-1.238440565
3070000000,-1.237382095,-1.239932196
3080000000,-1.239630414,-1.247528983
3090000000,-1.24183946,-1.250146627
3100000000,-1.244060695,-1.248640833
3110000000,-1.246260579,-1.253577307
3120000000,-1.248471514,-1.254523362
3130000000,-1.250715054,-1.253880195
3140000000,-1.252956346,-1.250899578
3150000000,-1.255175223,-1.256063286
3160000000,-1.257338766,-1.254643091
3170000000,-1.259544922,-1.268950767
3180000000,-1.261701798,-1.269288087
3190000000,-1.263878419,-1.263936825
3200000000,-1.266052819,-1.26941843
3210000000,-1.268216771,-1.280811942
3220000000,-1.270396716,-1.284185318
3230000000,-1.272585854,-1.285166505
3240000000,-1.274727869,-1.291603456
3250000000,-1.276864315,-1.290424118
3260000000,-1.279015016,-1.293866443
3270000000,-1.281165909,-1.294938379
3280000000,-1.28332422,-1.301807965
3290000000,-1.285504449,-1.307216245
3300000000,-1.287658269,-1.307717923
3310000000,-1.289779516,-1.30646793
3320000000,-1.291950259,-1.313991194
3330000000,-1.294084568,-1.308522645
3340000000,-1.296240576,-1.31076721
3350000000,-1.298431382,-1.318479819
3360000000,-1.30057445,-1.314455401
3370000000,-1.302720633,-1.313066585
3380000000,-1.304899845,-1.315338088
3390000000,-1.307065346,-1.31682292
3400000000,-1.30924627,-1.316904095
3410000000,-1.311438933,-1.321004624
3420000000,-1.313595576,-1.318587519
3430000000,-1.315694616,-1.324325793
3440000000,-1.317853664,-1.324192457
3450000000,-1.319975204,-1.326641051
3460000000,-1.322073348,-1.329861033
3470000000,-1.324156499,-1.330765589
3480000000,-1.326252563,-1.336047962
3490000000,-1.328324279,-1.336661394
3500000000,-1.330447004,-1.336929128
3510000000,-1.332566657,-1.340264407
3520000000,-1.334647655,-1.346190475
3530000000,-1.336700753,-1.347620572
3540000000,-1.338757756,-1.346517829
3550000000,-1.340824028,-1.352755195
3560000000,-1.342908699,-1.355225597
3570000000,-1.345007228,-1.357171964
3580000000,-1.347072414,-1.358507225
3590000000,-1.349156602,-1.36209431
3600000000,-1.351243794,-1.365176147
3610000000,-1.353292616,-1.366475665
3620000000,-1.35537431,-1.366514785
3630000000,-1.357428872,-1.366320435
3640000000,-1.359483384,-1.372588
3650000000,-1.361544221,-1.373362866
3660000000,-1.363631976,-1.372410416
3670000000,-1.365739445,-1.375656037
3680000000,-1.367820178,-1.376335111
3690000000,-1.369861686,-1.372273026
3700000000,-1.371925755,-1.37537529
3710000000,-1.373961868,-1.37698967
3720000000,-1.37601108,-1.379455889
3730000000,-1.378053295,-1.381303732
3740000000,-1.380073545,-1.379742987
3750000000,-1.382109578,-1.391683438
3760000000,-1.384130202,-1.388294873
3770000000,-1.386155081,-1.391637078
3780000000,-1.388137348,-1.387699844
3790000000,-1.39018463,-1.392494429
3800000000,-1.392193862,-1.402445536
3810000000,-1.394221568,-1.400918366
3820000000,-1.396231816,-1.399658119
3830000000,-1.398230697,-1.401459994
3840000000,-1.400228081,-1.406919194
3850000000,-1.402236963,-1.407730917
3860000000,-1.404278838,-1.406640363
3870000000,-1.406301866,-1.416861676
3880000000,-1.408335413,-1.416041381
3890000000,-1.410360489,-1.414432665
3900000000,-1.412409406,-1.4200287
3910000000,-1.414447329,-1.42323266
3920000000,-1.416473689,-1.429537717
3930000000,-1.418525443,-1.428357044
3940000000,-1.420558738,-1.430813813
3950000000,-1.422609201,-1.432251339
3960000000,-1.424656942,-1.432707447
3970000000,-1.426734286,-1.431505322
3980000000,-1.428806668,-1.440288462
3990000000,-1.430886313,-1.444520366
4000000000,-1.432960676,-1.437764531
4010000000,-1.43504702,-1.440934456
4020000000,-1.437111002,-1.437173638
4030000000,-1.439175473,-1.439345576
4040000000,-1.441249092,-1.440633648
4050000000,-1.443346947,-1.438330837
4060000000,-1.445408265,-1.445840043
4070000000,-1.447468854,-1.446144166
4080000000,-1.449488584,-1.444236105
4090000000,-1.45151084,-1.44780876
4100000000,-1.453552067,-1.44361503
4110000000,-1.455583578,-1.448837817
4120000000,-1.457611499,-1.457339536
4130000000,-1.45962358,-1.457367382
4140000000,-1.461651012,-1.463495347
4150000000,-1.463671513,-1.458527375
4160000000,-1.46572405,-1.472307413
4170000000,-1.467715629,-1.466139407
4180000000,-1.469719932,-1.472437303
4190000000,-1.471785764,-1.478355045
4200000000,-1.473851574,-1.481396641
4210000000,-1.475854666,-1.481990313
4220000000,-1.477882911,-1.492951211
4230000000,-1.479927766,-1.485125122
4240000000,-1.48195945,-1.484237839
4250000000,-1.484015689,-1.490145151
4260000000,-1.48610644,-1.491532848
4270000000,-1.488183337,-1.49443672
4280000000,-1.490277378,-1.498182558
4290000000,-1.49236037,-1.497524748
4300000000,-1.494446115,-1.491160935
4310000000,-1.496552322,-1.493186739
4320000000,-1.498607446,-1.49333778
4330000000,-1.500693353,-1.496079679
4340000000,-1.502766822,-1.500978056
4350000000,-1.504786437,-1.496438533
4360000000,-1.506838512,-1.493526728
4370000000,-1.508907454,-1.504058469
4380000000,-1.510967161,-1.503293146
4390000000,-1.512994938,-1.507033155
4400000000,-1.51502688,-1.511290988
4410000000,-1.517016761,-1.511049134
4420000000,-1.519021054,-1.501660085
4430000000,-1.520996879,-1.51646633
4440000000,-1.52298702,-1.515100362
4450000000,-1.524979223,-1.519814667
4460000000,-1.526940185,-1.51668094
4470000000,-1.528926246,-1.522729066
4480000000,-1.530892032,-1.524118675
4490000000,-1.532883701,-1.530909398
4500000000,-1.534905075,-1.537620867
4510000000,-1.536917342,-1.534412712
4520000000,-1.53893553,-1.530284565
4530000000,-1.540938314,-1.533776056
4540000000,-1.542945149,-1.537576995
4550000000,-1.544955165,-1.53922843
4560000000,-1.546977599,-1.543061937
4570000000,-1.549011265,-1.535559095
4580000000,-1.551050528,-1.539421483
4590000000,-1.55305229,-1.539590679
4600000000,-1.555054937,-1.537388262
4610000000,-1.557035823,-1.542825811
4620000000,-1.559038865,-1.538624864
4630000000,-1.561020195,-1.540525795
4640000000,-1.562976609,-1.544327618
4650000000,-1.564914752,-1.546789278
4660000000,-1.566896946,-1.553069715
4670000000,-1.568845109,-1.550507871
4680000000,-1.570763214,-1.549152688
4690000000,-1.572717597,-1.557093108
4700000000,-1.574635743,-1.558208073
4710000000,-1.576562261,-1.562346036
4720000000,-1.578461285,-1.565383861
4730000000,-1.580381576,-1.565658092
4740000000,-1.582270115,-1.569075274
4750000000,-1.584128436,-1.57268195
4760000000,-1.585974379,-1.576614664
4770000000,-1.5878123,-1.572879959
4780000000,-1.589700903,-1.58307438
4790000000,-1.591591023,-1.583055077
4800000000,-1.593462847,-1.585075568
4810000000,-1.595312782,-1.584423163
4820000000,-1.597188498,-1.580755223
4830000000,-1.599073751,-1.58341911
4840000000,-1.600951247,-1.588252186
4850000000,-1.602840532,-1.592271812
4860000000,-1.604776431,-1.590995351
4870000000,-1.606636896,-1.592920089
4880000000,-1.608538018,-1.597238478
4890000000,-1.610471787,-1.601685265
4900000000,-1.612383095,-1.601144511
4910000000,-1.614268747,-1.604330273
4920000000,-1.616128711,-1.608286613
4930000000,-1.618016977,-1.613517589
4940000000,-1.619898136,-1.615817261
4950000000,-1.621796126,-1.617289689
4960000000,-1.623696017,-1.628440573
4970000000,-1.625590065,-1.630833268
4980000000,-1.627468558,-1.633333357
4990000000,-1.629289006,-1.637886424
5000000000,-1.631191418,-1.64153805
5010000000,-1.633053527,-1.638353821
5020000000,-1.634926522,-1.647219318
5030000000,-1.636829263,-1.651280126
5040000000,-1.638750197,-1.654921482
5050000000,-1.640690018,-1.648642921
5060000000,-1.642579202,-1.649989285
5070000000,-1.644490592,-1.649455277
5080000000,-1.646419791,-1.652575602
5090000000,-1.648354316,-1.654844962
5100000000,-1.650331982,-1.657848063
5110000000,-1.652243519,-1.658079606
5120000000,-1.654138304,-1.654284306
5130000000,-1.656075287,-1.654358623
5140000000,-1.657977341,-1.658142911
5150000000,-1.659935962,-1.663098049
5160000000,-1.661840901,-1.665274918
5170000000,-1.663798396,-1.668144395
5180000000,-1.66575605,-1.67503736
5190000000,-1.667700521,-1.680514693
5200000000,-1.669628675,-1.679427271
5210000000,-1.671577615,-1.687806058
5220000000,-1.673484196,-1.692092568
5230000000,-1.675453254,-1.695908549
5240000000,-1.677455038,-1.699615746
5250000000,-1.679371384,-1.709925908
5260000000,-1.681299593,-1.70824078
5270000000,-1.683287596,-1.718522111
5280000000,-1.685252961,-1.721731645
5290000000,-1.687232488,-1.722781157
5300000000,-1.689291393,-1.725603156
5310000000,-1.691326676,-1.722960981
5320000000,-1.693392913,-1.723618017
5330000000,-1.695430933,-1.723387648
5340000000,-1.697466217,-1.720383259
5350000000,-1.699515927,-1.722818235
5360000000,-1.70157057,-1.72478596
5370000000,-1.703588565,-1.725219817
5380000000,-1.705642106,-1.720350555
5390000000,-1.707674641,-1.721260621
5400000000,-1.709681722,-1.71699083
5410000000,-1.711706731,-1.717441996
5420000000,-1.713777662,-1.717514934
5430000000,-1.715793753,-1.72023046
5440000000,-1.717794182,-1.723089389
5450000000,-1.719815604,-1.720092535
